#  F850LP  wavelength (A)   throughput  
    7380.000  0.
    7400.000    1.1933e-06
    7420.000    1.2432e-06
    7440.000    1.2921e-06
    7460.000    1.3411e-06
    7480.000    1.3902e-06
    7500.000    1.7290e-06
    7520.000    2.3523e-06
    7540.000    2.9690e-06
    7560.000    3.5873e-06
    7580.000    4.1902e-06
    7600.000    4.7906e-06
    7620.000    6.3219e-06
    7640.000    7.8405e-06
    7660.000    1.0043e-05
    7680.000    1.2218e-05
    7700.000    1.6911e-05
    7720.000    2.1543e-05
    7740.000    2.9760e-05
    7760.000    3.7942e-05
    7780.000    5.3218e-05
    7800.000    6.8458e-05
    7820.000    9.8846e-05
    7840.000    1.2864e-04
    7860.000    1.8867e-04
    7880.000    2.4796e-04
    7900.000    3.6678e-04
    7920.000    4.8322e-04
    7940.000    7.2178e-04
    7960.000    9.5400e-04
    7980.000    1.4497e-03
    8000.000    1.9502e-03
    8020.000    3.5775e-03
    8040.000    5.0442e-03
    8060.000    7.0167e-03
    8080.000    9.6179e-03
    8100.000    1.3613e-02
    8120.000    1.8492e-02
    8140.000    2.4522e-02
    8160.000    3.2491e-02
    8180.000    4.1403e-02
    8200.000    5.2177e-02
    8220.000    6.3569e-02
    8240.000    7.6191e-02
    8260.000    9.0532e-02
    8280.000    1.0635e-01
    8300.000    1.2295e-01
    8320.000    1.3391e-01
    8340.000    1.5318e-01
    8360.000    1.6532e-01
    8380.000    1.7997e-01
    8400.000    1.9097e-01
    8420.000    2.0348e-01
    8440.000    2.1328e-01
    8460.000    2.1609e-01
    8480.000    2.2666e-01
    8500.000    2.3179e-01
    8520.000    2.3802e-01
    8540.000    2.4126e-01
    8560.000    2.4228e-01
    8580.000    2.4540e-01
    8600.000    2.4581e-01
    8620.000    2.4734e-01
    8640.000    2.4358e-01
    8660.000    2.4585e-01
    8680.000    2.4499e-01
    8700.000    2.4444e-01
    8720.000    2.4285e-01
    8740.000    2.4056e-01
    8760.000    2.3903e-01
    8780.000    2.3717e-01
    8800.000    2.3556e-01
    8820.000    2.3301e-01
    8840.000    2.2829e-01
    8860.000    2.2774e-01
    8880.000    2.2496e-01
    8900.000    2.2248e-01
    8920.000    2.1821e-01
    8940.000    2.1693e-01
    8960.000    2.1333e-01
    8980.000    2.1022e-01
    9000.000    2.0821e-01
    9020.000    2.0422e-01
    9040.000    2.0120e-01
    9060.000    1.9825e-01
    9080.000    1.9545e-01
    9100.000    1.9176e-01
    9120.000    1.8936e-01
    9140.000    1.8587e-01
    9160.000    1.8302e-01
    9180.000    1.7940e-01
    9200.000    1.7682e-01
    9220.000    1.7337e-01
    9240.000    1.7092e-01
    9260.000    1.6768e-01
    9280.000    1.6580e-01
    9300.000    1.6306e-01
    9320.000    1.5908e-01
    9340.000    1.5697e-01
    9360.000    1.5347e-01
    9380.000    1.5041e-01
    9400.000    1.4666e-01
    9420.000    1.4283e-01
    9440.000    1.3940e-01
    9460.000    1.3526e-01
    9480.000    1.3188e-01
    9500.000    1.2785e-01
    9520.000    1.2347e-01
    9540.000    1.1912e-01
    9560.000    1.1627e-01
    9580.000    1.1342e-01
    9600.000    1.0952e-01
    9620.000    1.0583e-01
    9640.000    1.0255e-01
    9660.000    9.9293e-02
    9680.000    9.5578e-02
    9700.000    9.1980e-02
    9720.000    8.8803e-02
    9740.000    8.5648e-02
    9760.000    8.2282e-02
    9780.000    7.8898e-02
    9800.000    7.5826e-02
    9820.000    7.3911e-02
    9840.000    7.1526e-02
    9860.000    6.9126e-02
    9880.000    6.7064e-02
    9900.000    6.4985e-02
    9920.000    6.2609e-02
    9940.000    6.0254e-02
    9960.000    5.8225e-02
    9980.000    5.6177e-02
   10000.000    5.3761e-02
   10020.000    5.1883e-02
   10040.000    5.0303e-02
   10060.000    4.8693e-02
   10080.000    4.6873e-02
   10100.000    4.5065e-02
   10120.000    4.3437e-02
   10140.000    4.1800e-02
   10160.000    3.9901e-02
   10180.000    3.8045e-02
   10200.000    3.6304e-02
   10220.000    3.5061e-02
   10240.000    3.3738e-02
   10260.000    3.2441e-02
   10280.000    3.1127e-02
   10300.000    2.9813e-02
   10320.000    2.8504e-02
   10340.000    2.7193e-02
   10360.000    2.5879e-02
   10380.000    2.4574e-02
   10400.000    2.3196e-02
   10420.000    2.2176e-02
   10440.000    2.1206e-02
   10460.000    2.0250e-02
   10480.000    1.9224e-02
   10500.000    1.8189e-02
   10520.000    1.7208e-02
   10540.000    1.6209e-02
   10560.000    1.5210e-02
   10580.000    1.4217e-02
   10600.000    1.3224e-02
   10620.000    1.2502e-02
   10640.000    1.1784e-02
   10660.000    1.1060e-02
   10680.000    1.0340e-02
   10700.000    9.6107e-03
   10720.000    8.8747e-03
   10740.000    8.1516e-03
   10760.000    7.4299e-03
   10780.000    6.7020e-03
   10800.000    5.9844e-03
   10820.000    4.5147e-03
   10840.000    3.2378e-03
   10860.000    2.1578e-03
   10880.000    1.2713e-03
   10900.000    5.7719e-04
   10920.000    7.6870e-05
   10940.000    0.0000e+00
   10960.000    0.0000e+00
   10980.000    0.0000e+00
   11000.000    0.0000e+00
   11020.000    0.0000e+00
   11040.000    0.0000e+00
   11060.000    0.0000e+00
   11080.000    0.0000e+00
   11100.000    0.0000e+00
   11120.000    0.0000e+00
   11140.000    0.0000e+00
   11160.000    0.0000e+00
   11180.000    0.0000e+00
   11200.000    0.0000e+00
   11220.000    0.0000e+00
   11240.000    0.0000e+00
   11260.000    0.0000e+00
   11280.000    0.0000e+00
   11300.000    0.0000e+00
   11320.000    0.0000e+00
   11340.000    0.0000e+00
   11360.000    0.0000e+00
   11380.000    0.0000e+00
   11400.000    0.0000e+00
   11420.000    0.0000e+00
   11440.000    0.0000e+00
   11460.000    0.0000e+00
   11480.000    0.0000e+00
   11500.000    0.0000e+00
   11520.000  0.
